"PointID","x","y","Density","Momentum_x","Momentum_y","Energy","Pressure","Temperature","Mach","Pressure_Coefficient"
0, 1.488382021656100e-03, 4.706597967896906e-03, 1.258739576096646e+00, 1.384891510114016e+02, 2.546989819195804e+02, 2.825101905256488e+05, 9.964931753978512e+04, 2.757838225677324e+02, 6.918339055186671e-01, -4.445514332363729e-02
1, 4.832710320602642e-03, 8.816269339904866e-03, 1.063439325179902e+00, 2.145298106748174e+02, 2.079818839172835e+02, 2.426115025730330e+05, 8.025389156568040e+04, 2.628958496733003e+02, 8.644153242051220e-01, -5.590075492676925e-01
2, 9.332381480387024e-03, 1.227942046624692e-02, 9.494534991724228e-01, 2.463870926711611e+02, 1.631096432443637e+02, 2.190361832236156e+05, 6.922255515330695e+04, 2.539827796407184e+02, 9.741160160784313e-01, -8.516642147796255e-01
3, 1.459946849275805e-02, 1.527381396591203e-02, 8.936409474745441e-01, 2.620918365719043e+02, 1.336935096191410e+02, 2.076339782817106e+05, 6.367979570572253e+04, 2.482383903004078e+02, 1.042383457164889e+00, -9.987112666531720e-01
4, 2.046479713132301e-02, 1.796063353676528e-02, 8.694926795652619e-01, 2.713720006584662e+02, 1.145650114757714e+02, 2.028146602699778e+05, 6.116758116092699e+04, 2.450675010229389e+02, 1.079498190100827e+00, -1.065359250564330e+00
5, 2.685868270277166e-02, 2.045327339789000e-02, 8.610350175264476e-01, 2.774366948654788e+02, 1.013642320099974e+02, 2.011998510781394e+05, 6.021460268936129e+04, 2.436191122223662e+02, 1.096344380292030e+00, -1.090641364296285e+00
6, 3.375781461496627e-02, 2.282049748183516e-02, 8.594425056011877e-01, 2.816842784278249e+02, 9.158062023775511e+01, 2.009623052601049e+05, 5.996865408267703e+04, 2.430736140738127e+02, 1.102673690762020e+00, -1.097166276276921e+00
7, 4.115893005207923e-02, 2.510489825420425e-02, 8.596588256502853e-01, 2.850955096930234e+02, 8.399160168289066e+01, 2.011054198262552e+05, 5.989121535148043e+04, 2.426986414309161e+02, 1.107019828377274e+00, -1.099220692895750e+00
8, 4.906831578654961e-02, 2.733298459233075e-02, 8.574022360465819e-01, 2.875793376038753e+02, 7.700877056840422e+01, 2.007043714075982e+05, 5.960715210529792e+04, 2.421832518315307e+02, 1.112987581737786e+00, -1.106756770059440e+00
9, 5.750637327689671e-02, 2.948341214923270e-02, 8.548759005172917e-01, 2.892750352448437e+02, 7.052083231279033e+01, 2.002036604435002e+05, 5.934085521828695e+04, 2.418137945930301e+02, 1.117261505034316e+00, -1.113821513266928e+00
10, 6.648155001962376e-02, 3.157821290851928e-02, 8.563691660976135e-01, 2.909167861816373e+02, 6.553465409816535e+01, 2.005473885075015e+05, 5.945048991159305e+04, 2.418381217368791e+02, 1.116980187919129e+00, -1.110912951460093e+00
11, 7.600203847491609e-02, 3.365063877659168e-02, 8.591698978828278e-01, 2.927013330292087e+02, 6.155101612345190e+01, 2.011953935908347e+05, 5.965280073718520e+04, 2.418700707450958e+02, 1.116610710509276e+00, -1.105545731261064e+00
12, 8.608375560388261e-02, 3.570120169173398e-02, 8.589250819346622e-01, 2.940404238986509e+02, 5.741105343645145e+01, 2.011953080864642e+05, 5.957855892310616e+04, 2.416379010648518e+02, 1.119295102326601e+00, -1.107515335027799e+00
13, 9.674657926163116e-02, 3.770156582142695e-02, 8.568889953220689e-01, 2.948282378404381e+02, 5.309343104357740e+01, 2.007870323731666e+05, 5.936866876069608e+04, 2.413587737221136e+02, 1.122520738617494e+00, -1.113083631810571e+00
14, 1.080030196430421e-01, 3.964875538520368e-02, 8.570484506399013e-01, 2.956491400487203e+02, 4.950146803020935e+01, 2.008381983247603e+05, 5.936591423004260e+04, 2.413026722630708e+02, 1.123168836094730e+00, -1.113156708337835e+00
15, 1.198592595002916e-01, 4.157205777763585e-02, 8.585593444551005e-01, 2.966851841614006e+02, 4.655390586092166e+01, 2.011944948820173e+05, 5.946833244893264e+04, 2.412935908726257e+02, 1.123273739695200e+00, -1.110439596529477e+00
16, 1.323260049401440e-01, 4.346605901951094e-02, 8.581923505786613e-01, 2.975881290632727e+02, 4.354136167948926e+01, 2.011654684177522e+05, 5.938593777613410e+04, 2.410623161758789e+02, 1.125944669490559e+00, -1.112625492172195e+00
17, 1.454133337709611e-01, 4.531126179622485e-02, 8.554316159232073e-01, 2.979941746593152e+02, 4.016100865477548e+01, 2.006085028463380e+05, 5.910473077282078e+04, 2.406951234338026e+02, 1.130182805898721e+00, -1.120085794426777e+00
18, 1.591290650924811e-01, 4.707811240520520e-02, 8.534733462556927e-01, 2.983373074271462e+02, 3.706066646037601e+01, 2.002126518318736e+05, 5.890604151724126e+04, 2.404364027356770e+02, 1.133167178478372e+00, -1.125356935912928e+00
19, 1.734703417978991e-01, 4.879669121496576e-02, 8.531209164898498e-01, 2.988638344878292e+02, 3.447606728410587e+01, 2.001641663639293e+05, 5.884752758526090e+04, 2.402967939715341e+02, 1.134776983320934e+00, -1.126909285653632e+00
20, 1.884364181207424e-01, 5.045955868304197e-02, 8.522987533975045e-01, 2.993794637519993e+02, 3.196440729444104e+01, 2.000242249205635e+05, 5.873785628578391e+04, 2.400803327856889e+02, 1.137272145903651e+00, -1.129818818606620e+00
21, 2.040227938765091e-01, 5.205935230308094e-02, 8.499976501830089e-01, 2.997037464021774e+02, 2.929986058972395e+01, 1.995715549302043e+05, 5.849190006030844e+04, 2.397222523222897e+02, 1.141397634519711e+00, -1.136343932710548e+00
22, 2.202228765534745e-01, 5.356753842022878e-02, 8.468405158753254e-01, 2.997931391930092e+02, 2.652540541201684e+01, 1.989266277051453e+05, 5.817830583134829e+04, 2.393259478316531e+02, 1.145960501207542e+00, -1.144663454293474e+00
23, 2.370232121239444e-01, 5.497928051590684e-02, 8.445327927328771e-01, 2.999407946041531e+02, 2.401743860139851e+01, 1.984614646124348e+05, 5.794283286537572e+04, 2.390086132111786e+02, 1.149611941523059e+00, -1.150910451979307e+00
24, 2.544051357073449e-01, 5.630481230556028e-02, 8.428461470667727e-01, 3.001352899691764e+02, 2.171700535015423e+01, 1.981282956302556e+05, 5.776392795640064e+04, 2.387474584783051e+02, 1.152615516357500e+00, -1.155656723160524e+00
25, 2.723473351277398e-01, 5.753544001630031e-02, 8.409951719962674e-01, 3.002632397534099e+02, 1.944351391405089e+01, 1.977578257258975e+05, 5.757243275599994e+04, 2.384797039615969e+02, 1.155693694382997e+00, -1.160737009421031e+00
26, 2.908238586372769e-01, 5.866320922821767e-02, 8.387598710940904e-01, 3.004215353359809e+02, 1.720267893256328e+01, 1.973162709063102e+05, 5.733533926236875e+04, 2.381305349904647e+02, 1.159705910032695e+00, -1.167026999016748e+00
27, 3.098041426674255e-01, 5.968060820588356e-02, 8.353103037657827e-01, 3.003891792664628e+02, 1.479609590639974e+01, 1.966153898410863e+05, 5.698891477308043e+04, 2.376691941335783e+02, 1.165003840935116e+00, -1.176217493449777e+00
28, 3.292541116634058e-01, 6.055639621456834e-02, 8.312162267061716e-01, 3.001721155728454e+02, 1.229288041912977e+01, 1.957696805456314e+05, 5.659164219850802e+04, 2.371748470461409e+02, 1.170676909927998e+00, -1.186756965969470e+00
29, 3.491334895167653e-01, 6.129138633332758e-02, 8.276065415885289e-01, 3.000071450312770e+02, 9.948808843811982e+00, 1.950284468140457e+05, 5.623695782887621e+04, 2.367163467735746e+02, 1.175935175372333e+00, -1.196166591516672e+00
30, 3.693981327851027e-01, 6.188798276895507e-02, 8.241975059546256e-01, 2.998559099092205e+02, 7.683263091357768e+00, 1.943308436409756e+05, 5.589956106743308e+04, 2.362693829346910e+02, 1.181058117318217e+00, -1.205117584167727e+00
31, 3.900005139917574e-01, 6.233886471089847e-02, 8.205894393886629e-01, 2.996206786651701e+02, 5.412198092328165e+00, 1.935872381603392e+05, 5.554773984598410e+04, 2.358146676396591e+02, 1.186266998896336e+00, -1.214451251610786e+00
32, 4.108895833594902e-01, 6.263769497886723e-02, 8.168650074546744e-01, 2.993607954784571e+02, 3.126784627325713e+00, 1.928201996479140e+05, 5.518402255871295e+04, 2.353387311265937e+02, 1.191716003114897e+00, -1.224100516622995e+00
33, 4.320112296165419e-01, 6.277789632336661e-02, 8.126246567090918e-01, 2.990288384818496e+02, 7.962962261464014e-01, 1.919458969840866e+05, 5.477093394054047e+04, 2.347958930773116e+02, 1.197927472563950e+00, -1.235059582055873e+00
34, 4.533087845356548e-01, 6.275089317970582e-02, 8.073880151950049e-01, 2.986765611184526e+02, -1.684336814305702e+00, 1.908753654502447e+05, 5.425159542801561e+04, 2.340779801208949e+02, 1.206136953868330e+00, -1.248837412018249e+00
35, 4.747233971800481e-01, 6.253740327223976e-02, 8.001023157921962e-01, 2.978080642445473e+02, -4.473154224477805e+00, 1.893496884694825e+05, 5.356529834011445e+04, 2.332213720583300e+02, 1.215925293668948e+00, -1.267044582009948e+00
36, 4.961940457759984e-01, 6.210672002389438e-02, 7.928840132362859e-01, 2.969028138721850e+02, -7.373751529035341e+00, 1.878377109751252e+05, 5.288576377711262e+04, 2.323589818304313e+02, 1.225772774468221e+00, -1.285072345090871e+00
37, 5.176594506106671e-01, 6.147115887245182e-02, 7.857590245444185e-01, 2.957421287071859e+02, -1.022479089017471e+01, 1.863207489467754e+05, 5.223954429733691e+04, 2.316009558466929e+02, 1.234423561106085e+00, -1.302216273176310e+00
38, 5.390580832440339e-01, 6.062496922416033e-02, 7.793833201711864e-01, 2.956563637002523e+02, -1.320295113846205e+01, 1.850718385363036e+05, 5.155275958892061e+04, 2.304258276052756e+02, 1.247826784813707e+00, -1.320436379532984e+00
39, 5.603290756163882e-01, 5.956701765452013e-02, 7.667303887779663e-01, 2.938058174126755e+02, -1.609877103049844e+01, 1.824054173553255e+05, 5.037768873663795e+04, 2.288895195374641e+02, 1.265339004342008e+00, -1.351610509712132e+00
40, 5.814131775793067e-01, 5.830346216205409e-02, 7.644200677311760e-01, 2.942390345564619e+02, -1.903348924327591e+01, 1.820200318938554e+05, 5.006164937973860e+04, 2.281410414632340e+02, 1.273867898839091e+00, -1.359994899499843e+00
41, 6.022537092563391e-01, 5.684948376920528e-02, 7.736150776735214e-01, 2.830491675221875e+02, -2.079517803256255e+01, 1.826410374753041e+05, 5.223229379883262e+04, 2.352038997743607e+02, 1.193259158657979e+00, -1.302408625819384e+00
42, 6.227973317832398e-01, 5.522869921783197e-02, 9.712166727857208e-01, 2.785385669938411e+02, -2.336897251487604e+01, 2.221108642505647e+05, 7.275528043422599e+04, 2.609628790581432e+02, 8.886978541491063e-01, -7.579425148662938e-01
43, 6.429925307927998e-01, 5.344757351455351e-02, 1.178031692971232e+00, 2.826305223845010e+02, -2.616899875664921e+01, 2.652386214208610e+05, 9.241757739391769e+04, 2.732926492274019e+02, 7.270310329476913e-01, -2.363101351235822e-01
44, 6.627940448309648e-01, 5.154226032947966e-02, 1.176484494973543e+00, 2.846596924177150e+02, -2.837602918310591e+01, 2.650703394343301e+05, 9.211612250552676e+04, 2.727594374411868e+02, 7.344261831670343e-01, -2.443076051617369e-01
45, 6.821608226732692e-01, 4.954456312075972e-02, 1.148782724770259e+00, 2.851036921538076e+02, -3.029722219972540e+01, 2.593480167539160e+05, 8.942805191479991e+04, 2.711853469667099e+02, 7.559993788892961e-01, -3.156209752136571e-01
46, 7.010550082132370e-01, 4.747278396724455e-02, 1.143413524732949e+00, 2.843716969292062e+02, -3.203568992619075e+01, 2.581931074441355e+05, 8.895284578066107e+04, 2.710109677287275e+02, 7.583666715112648e-01, -3.282279919384756e-01
47, 7.194430947609419e-01, 4.534360623603934e-02, 1.150888565880575e+00, 2.831096702256375e+02, -3.359814106553047e+01, 2.596715264554655e+05, 8.974388593586233e+04, 2.716451407180646e+02, 7.497363095120274e-01, -3.072420328984108e-01
48, 7.372960510534777e-01, 4.317223871669951e-02, 1.157593517471386e+00, 2.816075275849806e+02, -3.515133453433401e+01, 2.609756209796719e+05, 9.047544760963974e+04, 2.722732652071388e+02, 7.411295175657989e-01, -2.878340126857482e-01
49, 7.545872707701541e-01, 4.095668225414970e-02, 1.162794240614953e+00, 2.798249549134816e+02, -3.662744508997179e+01, 2.619490620189767e+05, 9.108097162471441e+04, 2.728695836143021e+02, 7.329023127212123e-01, -2.717697179788640e-01
50, 7.712979944317557e-01, 3.872115325348097e-02, 1.169430430063767e+00, 2.779227990811248e+02, -3.782479556839608e+01, 2.632139526555985e+05, 9.183086064683367e+04, 2.735549698817092e+02, 7.233758336762514e-01, -2.518754810057928e-01
51, 7.874141928367798e-01, 3.648888309354163e-02, 1.176966793001860e+00, 2.759525380350402e+02, -3.882166994299754e+01, 2.646635725409547e+05, 9.266931749193025e+04, 2.742850266783325e+02, 7.131419606734966e-01, -2.296315773400149e-01
52, 8.029248402233755e-01, 3.427178776685741e-02, 1.184413901229729e+00, 2.740084070960962e+02, -3.972176821881164e+01, 2.660988585037671e+05, 9.349501008419646e+04, 2.749889749357193e+02, 7.031855970676636e-01, -2.077263038756423e-01
53, 8.178229711641704e-01, 3.208069957897763e-02, 1.191505142421165e+00, 2.719067069449534e+02, -4.067678330565476e+01, 2.674532842669493e+05, 9.429351987516471e+04, 2.756869902009278e+02, 6.932232450067227e-01, -1.865421785740806e-01
54, 8.321025599326716e-01, 2.990671633572663e-02, 1.199072407709807e+00, 2.696136939838039e+02, -4.151750702037432e+01, 2.688974276195567e+05, 9.514683531785283e+04, 2.764262509849314e+02, 6.825697988536281e-01, -1.639040826307067e-01
55, 8.457667817142311e-01, 2.777752355531409e-02, 1.207127605806269e+00, 2.673730747479994e+02, -4.207759032819685e+01, 2.704482718133708e+05, 9.604158867725190e+04, 2.771637947186331e+02, 6.718307454407367e-01, -1.401666563725774e-01
56, 8.588195683614787e-01, 2.570222445161219e-02, 1.214603006013320e+00, 2.652141363847747e+02, -4.255917412520827e+01, 2.718855887266530e+05, 9.687383982502580e+04, 2.778449502737816e+02, 6.618097780905090e-01, -1.180873872186794e-01
57, 8.712672538592060e-01, 2.368549458600508e-02, 1.221493680770530e+00, 2.629455348001285e+02, -4.313675287103024e+01, 2.731976914183083e+05, 9.765377963172332e+04, 2.785019099020124e+02, 6.520463723580191e-01, -9.739591570557324e-02
58, 8.831162813810621e-01, 2.171620084851521e-02, 1.228657999015724e+00, 2.605031049984450e+02, -4.366762948946158e+01, 2.745596378229291e+05, 9.846695522131260e+04, 2.791835606374432e+02, 6.418087430235669e-01, -7.582271300114247e-02
59, 8.943800869642660e-01, 1.981101716941146e-02, 1.236231965465616e+00, 2.580902449843636e+02, -4.398405326154708e+01, 2.760110404919377e+05, 9.931504568829021e+04, 2.798629598842239e+02, 6.314906256996417e-01, -5.332323344219002e-02
60, 9.050723287357787e-01, 1.797449670998754e-02, 1.243356306574776e+00, 2.557021860277262e+02, -4.427113515620211e+01, 2.773725799514418e+05, 1.001164908994290e+05, 2.805048423504774e+02, 6.216319776950546e-01, -3.206123269137415e-02
61, 9.152074381139634e-01, 1.620510212814749e-02, 1.250152754800814e+00, 2.531511219201129e+02, -4.465393123405956e+01, 2.786599485374429e+05, 1.008925570267433e+05, 2.811424285692911e+02, 6.117276805814077e-01, -1.147252824557355e-02
62, 9.248001003768191e-01, 1.449455264808714e-02, 1.257363137273937e+00, 2.504135458034802e+02, -4.494099575868417e+01, 2.800265915966278e+05, 1.017150211393791e+05, 2.818089067977581e+02, 6.012493155463334e-01, 1.034709502665791e-02
63, 9.338699981784264e-01, 1.285569604201148e-02, 1.264915068422403e+00, 2.476880029534960e+02, -4.504385291888958e+01, 2.814681231200888e+05, 1.025662925727522e+05, 2.824708498915979e+02, 5.907085375953893e-01, 3.293096427182841e-02
64, 9.424353878405202e-01, 1.128753991078227e-02, 1.272038749325372e+00, 2.448289299452250e+02, -4.518724966419113e+01, 2.828161943792902e+05, 1.033810053746818e+05, 2.831201342021789e+02, 5.802325069669554e-01, 5.454494856616755e-02
65, 9.505142239883686e-01, 9.783649259370201e-03, 1.279397280363493e+00, 2.417460104980425e+02, -4.532958678798229e+01, 2.842058740144995e+05, 1.042254114117618e+05, 2.837909489404686e+02, 5.692584037084144e-01, 7.694668176621680e-02
66, 9.581263574956631e-01, 8.345230745417747e-03, 1.287210980619461e+00, 2.384259212357628e+02, -4.532781467326016e+01, 2.856824067232406e+05, 1.051211559401292e+05, 2.844924447076950e+02, 5.576084428368286e-01, 1.007104033157199e-01
67, 9.652921139105467e-01, 6.974122005740126e-03, 1.295399688462798e+00, 2.349254370299185e+02, -4.524324167841957e+01, 2.872333172040003e+05, 1.060563768049499e+05, 2.852090770944293e+02, 5.455113511600170e-01, 1.255214152896290e-01
68, 9.720310617031982e-01, 5.667374718284992e-03, 1.303655480465460e+00, 2.309856820107608e+02, -4.509749253614517e+01, 2.887811109085435e+05, 1.070150813780299e+05, 2.859647462997092e+02, 5.325257057191265e-01, 1.509554400605465e-01
69, 9.783627426354865e-01, 4.422094784343121e-03, 1.313236240230353e+00, 2.266872822780645e+02, -4.494232716326056e+01, 2.905989969519820e+05, 1.081059614227351e+05, 2.867722538990807e+02, 5.183684553611524e-01, 1.798960239048425e-01
70, 9.843062383702008e-01, 3.233930640606041e-03, 1.323515280952596e+00, 2.214860685792914e+02, -4.454116135359281e+01, 2.925275119441849e+05, 1.092982122827204e+05, 2.876831622737171e+02, 5.020191438107274e-01, 2.115259323849863e-01
71, 9.898816063330094e-01, 2.104762412253461e-03, 1.339620582475005e+00, 2.153345999353863e+02, -4.393160646845306e+01, 2.956615749756425e+05, 1.110537858739330e+05, 2.887898346909171e+02, 4.815566157251122e-01, 2.581005534516411e-01
72, 9.951069681580849e-01, 1.028680081518246e-03, 1.348184926165956e+00, 1.961565068367526e+02, -4.053814491465477e+01, 2.966195425471124e+05, 1.126960049804748e+05, 2.911986780170300e+02, 4.343014983377907e-01, 3.016679282278685e-01
73, 0.000000000000000e+00, 0.000000000000000e+00, 1.532231264486103e+00, 2.848043468197132e-01, 2.278244418125849e+02, 3.371199212543790e+05, 1.280730046168918e+05, 2.911813960507548e+02, 4.346559984131573e-01, 7.096131916978786e-01
74, 1.000000000000000e+00, 0.000000000000000e+00, 1.338560644678120e+00, 1.651215388312049e+02, -1.557028905688504e+01, 2.932169726177607e+05, 1.131767688404494e+05, 2.945435955624739e+02, 3.601341598011984e-01, 3.144223890564758e-01
75, 9.950075124092339e-01, 2.737954483794270e-04, 1.438420195398851e+00, 2.777000618748265e+02, -1.549350004867074e+01, 3.196197202928722e+05, 1.170920084157253e+05, 2.835775386452901e+02, 5.727700817304366e-01, 4.182920305892447e-01
76, 9.896787314464088e-01, 5.264899793374042e-04, 1.418034220890349e+00, 2.707361410153484e+02, -1.187757873469884e+01, 3.149145123701504e+05, 1.156079258720007e+05, 2.840084379508942e+02, 5.656692849556866e-01, 3.789199515994554e-01
77, 9.839951793611126e-01, 7.526842740604471e-04, 1.420438476360627e+00, 2.694324526276421e+02, -9.631103298931889e+00, 3.153476945462906e+05, 1.159046881016261e+05, 2.842555285361141e+02, 5.615668439877410e-01, 3.867929273954457e-01
78, 9.779380078425327e-01, 9.472320877983507e-04, 1.420899276606909e+00, 2.683268189111990e+02, -7.357480206789874e+00, 3.153815873411831e+05, 1.160106895574792e+05, 2.844232275507060e+02, 5.587693988619324e-01, 3.896051009571720e-01
79, 9.714878392046027e-01, 1.095540719769462e-03, 1.422887095519650e+00, 2.681310994616971e+02, -4.717204305992491e+00, 3.157887968605867e+05, 1.162069811460722e+05, 2.845064546432419e+02, 5.573769954295966e-01, 3.948126333574359e-01
80, 9.646254099707996e-01, 1.181594542903086e-03, 1.422955984494583e+00, 2.677415287108772e+02, -2.074425460286395e+00, 3.157806186013233e+05, 1.162360637470623e+05, 2.845638796606241e+02, 5.564146744812599e-01, 3.955841823984618e-01
81, 9.573316955090736e-01, 1.205049314493324e-03, 1.423509250009516e+00, 2.677181485179682e+02, 3.588952463098930e-01, 3.158961194671621e+05, 1.162885257472001e+05, 2.845816653621118e+02, 5.561162762863736e-01, 3.969759769601067e-01
82, 9.495874329913329e-01, 1.161215969782362e-03, 1.424347291741703e+00, 2.675780954215148e+02, 2.785399513482993e+00, 3.160668629852772e+05, 1.163722035784499e+05, 2.846188825256800e+02, 5.554915965135223e-01, 3.991959142510540e-01
83, 9.413735295551132e-01, 1.039131488765503e-03, 1.423788036618187e+00, 2.675417474098109e+02, 5.703622090171483e+00, 3.159489292920288e+05, 1.163203331124284e+05, 2.846037663390682e+02, 5.557452002599844e-01, 3.978198128380500e-01
