"PointID","x","y","Density","Momentum_x","Momentum_y","Energy","Pressure","Temperature","Mach","Pressure_Coefficient"
0, 1.868553667329603e-04, 9.823874347339191e-04, 1.437258585689751e+00, 4.438095123936289e+01, 2.411535062098640e+02, 3.176609529879214e+05, 1.186978029066322e+05, 2.876988420403465e+02, 5.017340598822613e-01, 4.608930757970674e-01
1, 3.782626581306679e-04, 1.988706499972698e-03, 1.423321068165747e+00, 5.149728183247696e+01, 2.651444666335848e+02, 3.159845935944436e+05, 1.161426636366957e+05, 2.842622893828997e+02, 5.614510413672522e-01, 3.931063171755599e-01
2, 5.743232313122557e-04, 3.019490078244666e-03, 1.319052188675248e+00, 9.446631981619660e+01, 2.861525676997165e+02, 2.958851882963719e+05, 1.045855256947531e+05, 2.762103512437442e+02, 6.856923268242974e-01, 8.650036060654685e-02
3, 1.063869007526800e-03, 3.968283805449433e-03, 1.235530885089926e+00, 1.430565634641152e+02, 2.663476711964818e+02, 2.785067926813668e+05, 9.660644392308209e+04, 2.723847789477843e+02, 7.395952382166533e-01, -1.251812868251339e-01
4, 1.612536621108283e-03, 4.922527977243144e-03, 1.232865409378799e+00, 1.551480725760611e+02, 2.677483448014431e+02, 2.784561027170459e+05, 9.584788235242582e+04, 2.708302681181207e+02, 7.608152059759260e-01, -1.453056028241230e-01
5, 2.174456837156933e-03, 5.899821110470612e-03, 1.164338203378274e+00, 1.797109782877222e+02, 2.698979735248740e+02, 2.653992838967681e+05, 8.809950536062488e+04, 2.635874131333487e+02, 8.556489575541666e-01, -3.508667505202755e-01
6, 2.884563726317298e-03, 6.799379889762583e-03, 1.076935039645920e+00, 2.092571362790671e+02, 2.426751205906512e+02, 2.471654622230998e+05, 7.979729782411800e+04, 2.581243781846065e+02, 9.238246903430020e-01, -5.711207871297332e-01
7, 3.705922384474308e-03, 7.649721243580260e-03, 1.068312182711626e+00, 2.231754896921624e+02, 2.265054309073115e+02, 2.451957989201097e+05, 7.914901948776259e+04, 2.580938781504377e+02, 9.241989968358119e-01, -5.883193358049953e-01
8, 4.546981997414094e-03, 8.520458725685031e-03, 1.079973767217357e+00, 2.261755315309598e+02, 2.347135775817444e+02, 2.482578322042999e+05, 7.962750041922320e+04, 2.568503854667427e+02, 9.394070032665915e-01, -5.756254400993727e-01
9, 5.408165633266049e-03, 9.412030332708861e-03, 9.900136560925380e-01, 2.441380884867813e+02, 2.180760691570970e+02, 2.301580748053684e+05, 7.041492688520944e+04, 2.477729506562666e+02, 1.047853449238525e+00, -8.200310996189039e-01
10, 6.432431839990862e-03, 1.016131660494208e-02, 9.268927210070019e-01, 2.532733116294698e+02, 1.846934444716725e+02, 2.161507078141194e+05, 6.525846837672665e+04, 2.452662270413739e+02, 1.077181940865290e+00, -9.568297517976678e-01
11, 7.481718136580204e-03, 1.092770831239136e-02, 9.711291071565703e-01, 2.573094528625482e+02, 1.835357809887318e+02, 2.252944417866532e+05, 6.954511820830629e+04, 2.494709746328419e+02, 1.027857402743457e+00, -8.431067540545982e-01
12, 8.555916556299430e-03, 1.171229566829594e-02, 9.923366647158630e-01, 2.606337110412059e+02, 1.910552372587375e+02, 2.302328436188494e+05, 7.104543484249583e+04, 2.494063370989910e+02, 1.028620665620220e+00, -8.033039915460141e-01
13, 9.659463984877487e-03, 1.250935914645646e-02, 9.209177206325493e-01, 2.684199808706196e+02, 1.746839991086582e+02, 2.156209948915251e+05, 6.397414187980664e+04, 2.419992302443744e+02, 1.115116787298947e+00, -9.909023877836064e-01
14, 1.087582449533125e-02, 1.319004145554245e-02, 8.656231703311414e-01, 2.700230070681404e+02, 1.503998609421198e+02, 2.034857053872354e+05, 5.932173470194548e+04, 2.387345717466961e+02, 1.152763701263858e+00, -1.114328772437185e+00
15, 1.212082238523997e-02, 1.388674940620924e-02, 8.943635571008841e-01, 2.730661359910764e+02, 1.498026002333474e+02, 2.094470657068500e+05, 6.208609676763815e+04, 2.418302407246021e+02, 1.117071331308002e+00, -1.040991421986531e+00
16, 1.339504560808133e-02, 1.459981202059080e-02, 9.231712019953837e-01, 2.774557653877539e+02, 1.555815709227746e+02, 2.158578475730839e+05, 6.442145717022583e+04, 2.430964635549617e+02, 1.102408739889422e+00, -9.790353032860523e-01
17, 1.469908984313819e-02, 1.532956264422593e-02, 8.918335432286065e-01, 2.809525458735604e+02, 1.469024674007657e+02, 2.095044038110609e+05, 6.126063404061478e+04, 2.392919175455660e+02, 1.146352172174892e+00, -1.062890597223728e+00
18, 1.608039264463233e-02, 1.598343188007251e-02, 8.472221602283093e-01, 2.805293980334779e+02, 1.297593689094303e+02, 1.998379637750758e+05, 5.738283939220578e+04, 2.359473328893947e+02, 1.184747583104434e+00, -1.165766840764852e+00
19, 1.750682883151234e-02, 1.662670099459585e-02, 8.538269513534231e-01, 2.824716942789837e+02, 1.257978423225225e+02, 2.011592452474526e+05, 5.806680489942123e+04, 2.369127401184890e+02, 1.173683256129335e+00, -1.147621526617571e+00
20, 1.896633049489777e-02, 1.728488139641586e-02, 8.782682843786573e-01, 2.855490310553088e+02, 1.281962993573744e+02, 2.063978206087007e+05, 6.024873811596625e+04, 2.389742462893970e+02, 1.150007278374084e+00, -1.089735765939695e+00
21, 2.045955065504890e-02, 1.795826757312929e-02, 8.807468809716062e-01, 2.889196273331522e+02, 1.278862333014220e+02, 2.071916727025223e+05, 6.020740010415481e+04, 2.381382211490187e+02, 1.159617618704516e+00, -1.090832445819937e+00
22, 2.199914742851152e-02, 1.861816440305053e-02, 8.490998647677133e-01, 2.888610458697967e+02, 1.171366316833431e+02, 2.004833530549389e+05, 5.730753041580087e+04, 2.351165861139376e+02, 1.194258357600029e+00, -1.167764755894433e+00
23, 2.360280386817347e-02, 1.922375407180830e-02, 8.331520483608815e-01, 2.882572126862705e+02, 1.083293185952932e+02, 1.969375650590063e+05, 5.601148313379289e+04, 2.341979835432468e+02, 1.204765093926879e+00, -1.202148339326157e+00
24, 2.524311775466279e-02, 1.984318671249737e-02, 8.511805570221458e-01, 2.906073953804584e+02, 1.088667884788447e+02, 2.007507697698940e+05, 5.767182207401579e+04, 2.360327809024933e+02, 1.183768816176785e+00, -1.158100253065255e+00
25, 2.692078743282394e-02, 2.047672604146781e-02, 8.679298662479117e-01, 2.937274340077443e+02, 1.110559245135090e+02, 2.044504425596468e+05, 5.905732171191632e+04, 2.370388108476473e+02, 1.172237369686270e+00, -1.121343536658606e+00
26, 2.863651761350022e-02, 2.112463817906536e-02, 8.565644956792320e-01, 2.949406201697035e+02, 1.067917325613263e+02, 2.021652767731883e+05, 5.789190524877109e+04, 2.354442664056515e+02, 1.190507986910998e+00, -1.152261539998095e+00
27, 3.041028522208838e-02, 2.173232301546827e-02, 8.341486915047744e-01, 2.936121907892538e+02, 9.811591769868332e+01, 1.973067972461482e+05, 5.594483669066313e+04, 2.336398306962429e+02, 1.211144547915684e+00, -1.203916441130460e+00
28, 3.223399299179712e-02, 2.232515193381449e-02, 8.361337101824913e-01, 2.944518468800013e+02, 9.519231424254525e+01, 1.976861085708637e+05, 5.616818677209984e+04, 2.340157115019350e+02, 1.206848746008375e+00, -1.197991058417829e+00
29, 3.409857640369993e-02, 2.293126821275164e-02, 8.526634577266224e-01, 2.963494020184879e+02, 9.604425291322961e+01, 2.011686980248857e+05, 5.770410974338314e+04, 2.357542005135785e+02, 1.186959458216282e+00, -1.157243674922683e+00
30, 3.600477426465880e-02, 2.355091201470057e-02, 8.633128690810412e-01, 2.991091489964433e+02, 9.740729480432213e+01, 2.035931276794313e+05, 5.851289360220174e+04, 2.361096329277597e+02, 1.182888426276115e+00, -1.135786982968639e+00
31, 3.795332999499362e-02, 2.418432500176933e-02, 8.475499703711036e-01, 2.990381925303430e+02, 9.201449353141938e+01, 2.002999790495812e+05, 5.702034887692818e+04, 2.343661589946786e+02, 1.202842267925257e+00, -1.175383560037582e+00
32, 3.996574107501637e-02, 2.476379857981614e-02, 8.321292865669084e-01, 2.975024984031007e+02, 8.530272172762109e+01, 1.969000180347741e+05, 5.573851465584779e+04, 2.333430818236953e+02, 1.214534979050122e+00, -1.209390077004982e+00
33, 4.202366586872132e-02, 2.535210226895673e-02, 8.420401771819457e-01, 2.990770149268500e+02, 8.508580586278971e+01, 1.990088451774839e+05, 5.663868251256719e+04, 2.343207096225180e+02, 1.203361941832831e+00, -1.185509006434690e+00
34, 4.412669291053996e-02, 2.595329944139418e-02, 8.555639427160627e-01, 3.008617531627655e+02, 8.596396021925028e+01, 2.018861964762996e+05, 5.786721275696136e+04, 2.356190695708899e+02, 1.188506767560260e+00, -1.152916621308834e+00
35, 4.627558762524089e-02, 2.656760891086575e-02, 8.591789438209607e-01, 3.026172716827982e+02, 8.564074473774760e+01, 2.027682924569471e+05, 5.808264884086772e+04, 2.355012053123371e+02, 1.189856170070475e+00, -1.147201193586381e+00
36, 4.847477435142844e-02, 2.718172135909161e-02, 8.460363998404893e-01, 3.020660563253090e+02, 8.083051332232716e+01, 1.999821772297996e+05, 5.687862325758387e+04, 2.342018776449660e+02, 1.204720574322734e+00, -1.179143480470106e+00
37, 5.073530488727553e-02, 2.775781451359605e-02, 8.391491110603583e-01, 3.013420977990137e+02, 7.671567644241006e+01, 1.984393708367831e+05, 5.633041499800854e+04, 2.338482677816563e+02, 1.208762577572103e+00, -1.193687212548973e+00
38, 5.304438745889686e-02, 2.834628108885427e-02, 8.495301815145438e-01, 3.027542675537161e+02, 7.693428508885117e+01, 2.006385708557907e+05, 5.728295888392557e+04, 2.348967323598750e+02, 1.196773886367253e+00, -1.168416628189532e+00
39, 5.540279818081784e-02, 2.894731887660502e-02, 8.594973516454876e-01, 3.044507255398973e+02, 7.758849531068770e+01, 2.027977866457062e+05, 5.814982482920551e+04, 2.356862320120309e+02, 1.187737757910690e+00, -1.145419043172823e+00
40, 5.781131265562350e-02, 2.956112553811975e-02, 8.573270325406117e-01, 3.052784990458047e+02, 7.591328322008293e+01, 2.024099159039877e+05, 5.787877604497586e+04, 2.351815054812531e+02, 1.193515448284643e+00, -1.152609852193454e+00
41, 6.027800693952004e-02, 3.015771077312313e-02, 8.469168590271448e-01, 3.044923342728144e+02, 7.175270749937167e+01, 2.001705507013070e+05, 5.695756151366002e+04, 2.342830962675080e+02, 1.203792000446307e+00, -1.177049282093682e+00
42, 6.280393572909873e-02, 3.073610399021274e-02, 8.467782839757323e-01, 3.045764954818318e+02, 6.964680955631982e+01, 2.001016123080534e+05, 5.698442784050594e+04, 2.344319637755329e+02, 1.202089806893212e+00, -1.176336529863548e+00
43, 6.538259518935075e-02, 3.132657160242222e-02, 8.564309002641799e-01, 3.057127289392415e+02, 6.990198499533930e+01, 2.021308778112452e+05, 5.788574398516432e+04, 2.354559320223535e+02, 1.190374446360320e+00, -1.152424995702381e+00
44, 6.801475567216299e-02, 3.192929000676957e-02, 8.633598561794200e-01, 3.073913366830042e+02, 7.038563523585394e+01, 2.036833570690624e+05, 5.843692972512537e+04, 2.357902723227168e+02, 1.186546378896522e+00, -1.137802272334630e+00
45, 7.070118294540700e-02, 3.254443455061398e-02, 8.562347076414681e-01, 3.073632624243729e+02, 6.760630156269168e+01, 2.022082511330297e+05, 5.774880562014051e+04, 2.349527451809053e+02, 1.196133052818593e+00, -1.156057912312881e+00
46, 7.345327184643544e-02, 3.312337469227806e-02, 8.481288337410886e-01, 3.063971683318172e+02, 6.394728748660911e+01, 2.004273839271150e+05, 5.706868975403580e+04, 2.344047558371522e+02, 1.202400928640831e+00, -1.174101097118006e+00
47, 7.626340347121752e-02, 3.370470742842766e-02, 8.534306270369858e-01, 3.071578853793267e+02, 6.342857426655593e+01, 2.015416895902796e+05, 5.756403453925231e+04, 2.349705027345446e+02, 1.195929883682978e+00, -1.160959810541197e+00
48, 7.913032292552860e-02, 3.429778787917859e-02, 8.615918221597230e-01, 3.083056961206372e+02, 6.374637526316265e+01, 2.032793928714077e+05, 5.830411012350847e+04, 2.357371063822109e+02, 1.187155206930815e+00, -1.141325919902864e+00
49, 8.205477148977755e-02, 3.490276939342188e-02, 8.633781029848797e-01, 3.093762325408068e+02, 6.323805169121506e+01, 2.037314978733307e+05, 5.839432873962039e+04, 2.356133997371025e+02, 1.188571684380363e+00, -1.138932458370062e+00
50, 8.504031164241822e-02, 3.550544980284840e-02, 8.554030032584561e-01, 3.088490486142244e+02, 6.020106905957691e+01, 2.020387962848581e+05, 5.766575093803689e+04, 2.348429496378471e+02, 1.197389170369719e+00, -1.158261317721888e+00
51, 8.809314920886438e-02, 3.607816740164882e-02, 8.524513436155460e-01, 3.083959770063494e+02, 5.784501369777167e+01, 2.013624778670062e+05, 5.744593101140106e+04, 2.347577930146301e+02, 1.198363307347226e+00, -1.164093046928347e+00
52, 9.120589652385883e-02, 3.666212417272308e-02, 8.597228133919013e-01, 3.092961369868985e+02, 5.794671461190406e+01, 2.028941724299978e+05, 5.812189033570671e+04, 2.355112322434569e+02, 1.189741380904737e+00, -1.146160133410172e+00
53, 9.437925233350763e-02, 3.725745120204718e-02, 8.654578573481627e-01, 3.106131898241023e+02, 5.825243802782423e+01, 2.041694749352731e+05, 5.858777530189593e+04, 2.358258602843541e+02, 1.186138823368387e+00, -1.133800403308555e+00
54, 9.761390113185890e-02, 3.786427690188649e-02, 8.608705091653311e-01, 3.106593880694252e+02, 5.628713474868210e+01, 2.032299155117690e+05, 5.813459331931750e+04, 2.352486574200935e+02, 1.192746935435253e+00, -1.145823128655117e+00
55, 1.009179934473661e-01, 3.844093649470300e-02, 8.546912490627614e-01, 3.098697105907822e+02, 5.348432220993788e+01, 2.018761362849483e+05, 5.761231887206151e+04, 2.348207353298243e+02, 1.197643296007646e+00, -1.159678847717821e+00
56, 1.042872132885794e-01, 3.901530379527143e-02, 8.582105658498299e-01, 3.103126563330563e+02, 5.284551768229714e+01, 2.026059843122211e+05, 5.795095268175267e+04, 2.352323613369476e+02, 1.192933439296955e+00, -1.150695036702624e+00
57, 1.077198696843676e-01, 3.960048543397326e-02, 8.643571807103538e-01, 3.112980771379900e+02, 5.303740861180363e+01, 2.039262492148904e+05, 5.849683019665704e+04, 2.357596262550122e+02, 1.186897325924893e+00, -1.136213138289059e+00
58, 1.112165792042311e-01, 4.019658652041135e-02, 8.647063857367796e-01, 3.120085903507816e+02, 5.232369730246547e+01, 2.040560646099537e+05, 5.847303515992820e+04, 2.355685541951424e+02, 1.189085129325102e+00, -1.136844410498017e+00
59, 1.147810704989078e-01, 4.078446167947376e-02, 8.585275018233114e-01, 3.114621525799294e+02, 4.987199496221166e+01, 2.027367321365805e+05, 5.791642817238774e+04, 2.350054335457329e+02, 1.195530219329660e+00, -1.151610957259434e+00
60, 1.184165072977162e-01, 4.134829572288493e-02, 8.575552357712529e-01, 3.112174433003142e+02, 4.826159581835232e+01, 2.024929463183243e+05, 5.786502924807900e+04, 2.350630784175496e+02, 1.194870637457403e+00, -1.152974548871256e+00
61, 1.221178769094284e-01, 4.192235554288097e-02, 8.635508573167573e-01, 3.119566749505303e+02, 4.833887399553073e+01, 2.037558855292405e+05, 5.842239014449754e+04, 2.356794664181186e+02, 1.187815226582238e+00, -1.138188001227796e+00
62, 1.258857053631397e-01, 4.250672272336174e-02, 8.670256091324634e-01, 3.131025478080042e+02, 4.842450881821826e+01, 2.045627309743633e+05, 5.867049639145951e+04, 2.357318055579009e+02, 1.187215907032871e+00, -1.131605847967822e+00
63, 1.297208938813724e-01, 4.309876037351264e-02, 8.608966160520675e-01, 3.127051016375136e+02, 4.621264442963191e+01, 2.032753311884293e+05, 5.809710381845244e+04, 2.350898222554288e+02, 1.194564616394137e+00, -1.146817709175983e+00
64, 1.336310900131304e-01, 4.365006498678302e-02, 8.568813721809342e-01, 3.119621400155410e+02, 4.400470165346738e+01, 2.023716946630803e+05, 5.778169261077190e+04, 2.349091336086573e+02, 1.196632008877234e+00, -1.155185434431950e+00
65, 1.376092961489771e-01, 4.421095843594276e-02, 8.622328756514752e-01, 3.126448068470951e+02, 4.403043316848631e+01, 2.035005420945550e+05, 5.827758788026970e+04, 2.354546845126856e+02, 1.190388727078656e+00, -1.142029543741173e+00
66, 1.416559236707085e-01, 4.478149872234891e-02, 8.663318272380053e-01, 3.137269243142531e+02, 4.421050188534374e+01, 2.044256889043092e+05, 5.859690287457243e+04, 2.356246582363572e+02, 1.188442779550449e+00, -1.133558252685651e+00
67, 1.457713512338294e-01, 4.536173923322797e-02, 8.619535165834575e-01, 3.135634550267372e+02, 4.249791926631779e+01, 2.035186777675912e+05, 5.817463742311556e+04, 2.351149173330735e+02, 1.194277453580602e+00, -1.144760775604419e+00
68, 1.499620268500130e-01, 4.590631591106276e-02, 8.574026614522838e-01, 3.128124639754161e+02, 4.034289036400074e+01, 2.025117356663642e+05, 5.779991758605505e+04, 2.348403598711838e+02, 1.197418796839421e+00, -1.154701933585269e+00
69, 1.542234515557699e-01, 4.645104174269772e-02, 8.608131574520267e-01, 3.132064090701608e+02, 4.000246875459846e+01, 2.032220578739436e+05, 5.812503869159098e+04, 2.352256643401629e+02, 1.193010083451365e+00, -1.146076608866953e+00
70, 1.585547217957180e-01, 4.700469573083556e-02, 8.647178554182640e-01, 3.141715739125479e+02, 4.013366558526849e+01, 2.040958938598698e+05, 5.843668815793169e+04, 2.354190014673696e+02, 1.190797197695707e+00, -1.137808681009587e+00
71, 1.629560703182467e-01, 4.756730762704266e-02, 8.615931348838559e-01, 3.141685666192952e+02, 3.877222408625914e+01, 2.034602433788649e+05, 5.812365815927560e+04, 2.350071389745664e+02, 1.195510706080587e+00, -1.146113233802405e+00
72, 1.674324558893350e-01, 4.809971213446472e-02, 8.570668606509482e-01, 3.134700272344690e+02, 3.675740075306847e+01, 2.024679727594192e+05, 5.774172972179075e+04, 2.346958616625907e+02, 1.199071708589896e+00, -1.156245632888079e+00
73, 1.719812471316881e-01, 4.862479862756813e-02, 8.591499291464985e-01, 3.136566131681371e+02, 3.618533849011248e+01, 2.028919692596737e+05, 5.795016303364809e+04, 2.349719650195578e+02, 1.195913153021534e+00, -1.150715985731153e+00
74, 1.766006706782073e-01, 4.915803851064227e-02, 8.627494116482985e-01, 3.145499311941177e+02, 3.628253781756998e+01, 2.036974877546630e+05, 5.823746507910626e+04, 2.351517074594855e+02, 1.193856450381252e+00, -1.143093984599519e+00
75, 1.812907882974559e-01, 4.969943891389748e-02, 8.601696015492624e-01, 3.145858566295169e+02, 3.508599303072185e+01, 2.031773894783626e+05, 5.797432035623647e+04, 2.347912569602770e+02, 1.197980511466182e+00, -1.150075102232353e+00
76, 1.860556634137311e-01, 5.021209407789390e-02, 8.559837459998094e-01, 3.139253119822741e+02, 3.322423265738877e+01, 2.022605039138291e+05, 5.762035964574296e+04, 2.344988903062778e+02, 1.201324469029780e+00, -1.159465529410248e+00
77, 1.908931875070894e-01, 5.071492454007116e-02, 8.576681978230518e-01, 3.140430166349724e+02, 3.262677638375732e+01, 2.025988899058771e+05, 5.779338148895475e+04, 2.347411048059663e+02, 1.198554199633462e+00, -1.154875333462793e+00
78, 1.958013938430483e-01, 5.122510198058459e-02, 8.609014946225118e-01, 3.149097380705833e+02, 3.270605906834422e+01, 2.033290207121530e+05, 5.804489544777459e+04, 2.348772301672345e+02, 1.196996998829223e+00, -1.148202775055875e+00
79, 2.007801492615659e-01, 5.174261255827823e-02, 8.580781487322130e-01, 3.148612898562153e+02, 3.148950080280115e+01, 2.027533953269761e+05, 5.776333917327067e+04, 2.345069906547230e+02, 1.201231834119671e+00, -1.155672343326666e+00
80, 2.058331641982027e-01, 5.222789313342849e-02, 8.541910682225231e-01, 3.141913688133816e+02, 2.973231160834261e+01, 2.018978287493346e+05, 5.743876904320312e+04, 2.342504551645123e+02, 1.204165195273680e+00, -1.164283050900029e+00
81, 2.109578287945744e-01, 5.270498625408746e-02, 8.561025848172834e-01, 3.143485107690101e+02, 2.924895219540947e+01, 2.022868929863527e+05, 5.763005061968676e+04, 2.345057727366207e+02, 1.201245762172831e+00, -1.159208431991229e+00
82, 2.161523987987308e-01, 5.318858738878790e-02, 8.589322075606382e-01, 3.152218325555644e+02, 2.932048665718690e+01, 2.029378775882786e+05, 5.783815335952525e+04, 2.345772420334530e+02, 1.200428413987739e+00, -1.153687554769434e+00
83, 2.214165245024310e-01, 5.367866398059015e-02, 8.553514786388730e-01, 3.149985554834502e+02, 2.795735332794340e+01, 2.021945989075051e+05, 5.749430517760445e+04, 2.341588436186560e+02, 1.205212553845477e+00, -1.162809700863212e+00
84, 2.267538722540795e-01, 5.412886783352246e-02, 8.518082707682685e-01, 3.142931746749788e+02, 2.628767204586295e+01, 2.014060579987665e+05, 5.720711079824242e+04, 2.339583270921287e+02, 1.207504665474609e+00, -1.170428845659085e+00
